 frequency       frequency       onoise_spectrum inoise_spectrum
 1.00000000e+00  1.00000000e+00  1.52257292e-07  1.08609841e-06 
 1.04712855e+00  1.04712855e+00  1.48791889e-07  1.06137861e-06 
 1.09647820e+00  1.09647820e+00  1.45405377e-07  1.03722158e-06 
 1.14815362e+00  1.14815362e+00  1.42095961e-07  1.01361449e-06 
 1.20226443e+00  1.20226443e+00  1.38861887e-07  9.90544832e-07 
 1.25892541e+00  1.25892541e+00  1.35701438e-07  9.68000375e-07 
 1.31825674e+00  1.31825674e+00  1.32612941e-07  9.45969165e-07 
 1.38038426e+00  1.38038426e+00  1.29594756e-07  9.24439521e-07 
 1.44543977e+00  1.44543977e+00  1.26645284e-07  9.03400026e-07 
 1.51356125e+00  1.51356125e+00  1.23762962e-07  8.82839526e-07 
 1.58489319e+00  1.58489319e+00  1.20946260e-07  8.62747119e-07 
 1.65958691e+00  1.65958691e+00  1.18193685e-07  8.43112153e-07 
 1.73780083e+00  1.73780083e+00  1.15503779e-07  8.23924215e-07 
 1.81970086e+00  1.81970086e+00  1.12875113e-07  8.05173133e-07 
 1.90546072e+00  1.90546072e+00  1.10306296e-07  7.86848964e-07 
 1.99526231e+00  1.99526231e+00  1.07795965e-07  7.68941993e-07 
 2.08929613e+00  2.08929613e+00  1.05342788e-07  7.51442726e-07 
 2.18776162e+00  2.18776162e+00  1.02945466e-07  7.34341883e-07 
 2.29086765e+00  2.29086765e+00  1.00602727e-07  7.17630398e-07 
 2.39883292e+00  2.39883292e+00  9.83133281e-08  7.01299410e-07 
 2.51188643e+00  2.51188643e+00  9.60760567e-08  6.85340260e-07 
 2.63026799e+00  2.63026799e+00  9.38897261e-08  6.69744487e-07 
 2.75422870e+00  2.75422870e+00  9.17531770e-08  6.54503821e-07 
 2.88403150e+00  2.88403150e+00  8.96652767e-08  6.39610181e-07 
 3.01995172e+00  3.01995172e+00  8.76249181e-08  6.25055671e-07 
 3.16227766e+00  3.16227766e+00  8.56310194e-08  6.10832574e-07 
 3.31131121e+00  3.31131121e+00  8.36825233e-08  5.96933349e-07 
 3.46736850e+00  3.46736850e+00  8.17783969e-08  5.83350625e-07 
 3.63078055e+00  3.63078055e+00  7.99176304e-08  5.70077202e-07 
 3.80189396e+00  3.80189396e+00  7.80992373e-08  5.57106041e-07 
 3.98107171e+00  3.98107171e+00  7.63222535e-08  5.44430265e-07 
 4.16869383e+00  4.16869383e+00  7.45857367e-08  5.32043153e-07 
 4.36515832e+00  4.36515832e+00  7.28887662e-08  5.19938138e-07 
 4.57088190e+00  4.57088190e+00  7.12304424e-08  5.08108800e-07 
 4.78630092e+00  4.78630092e+00  6.96098858e-08  4.96548868e-07 
 5.01187234e+00  5.01187234e+00  6.80262373e-08  4.85252213e-07 
 5.24807460e+00  5.24807460e+00  6.64786572e-08  4.74212845e-07 
 5.49540874e+00  5.49540874e+00  6.49663250e-08  4.63424911e-07 
 5.75439937e+00  5.75439937e+00  6.34884388e-08  4.52882691e-07 
 6.02559586e+00  6.02559586e+00  6.20442149e-08  4.42580595e-07 
 6.30957344e+00  6.30957344e+00  6.06328877e-08  4.32513161e-07 
 6.60693448e+00  6.60693448e+00  5.92537089e-08  4.22675052e-07 
 6.91830971e+00  6.91830971e+00  5.79059471e-08  4.13061050e-07 
 7.24435960e+00  7.24435960e+00  5.65888878e-08  4.03666058e-07 
 7.58577575e+00  7.58577575e+00  5.53018327e-08  3.94485095e-07 
 7.94328235e+00  7.94328235e+00  5.40440993e-08  3.85513293e-07 
 8.31763771e+00  8.31763771e+00  5.28150207e-08  3.76745896e-07 
 8.70963590e+00  8.70963590e+00  5.16139454e-08  3.68178254e-07 
 9.12010839e+00  9.12010839e+00  5.04402365e-08  3.59805824e-07 
 9.54992586e+00  9.54992586e+00  4.92932716e-08  3.51624169e-07 
 1.00000000e+01  1.00000000e+01  4.81724426e-08  3.43628948e-07 
 1.04712855e+01  1.04712855e+01  4.70771553e-08  3.35815925e-07 
 1.09647820e+01  1.09647820e+01  4.60068288e-08  3.28180955e-07 
 1.14815362e+01  1.14815362e+01  4.49608957e-08  3.20719990e-07 
 1.20226443e+01  1.20226443e+01  4.39388015e-08  3.13429076e-07 
 1.25892541e+01  1.25892541e+01  4.29400042e-08  3.06304345e-07 
 1.31825674e+01  1.31825674e+01  4.19639741e-08  2.99342020e-07 
 1.38038426e+01  1.38038426e+01  4.10101939e-08  2.92538411e-07 
 1.44543977e+01  1.44543977e+01  4.00781578e-08  2.85889908e-07 
 1.51356125e+01  1.51356125e+01  3.91673715e-08  2.79392988e-07 
 1.58489319e+01  1.58489319e+01  3.82773523e-08  2.73044206e-07 
 1.65958691e+01  1.65958691e+01  3.74076282e-08  2.66840194e-07 
 1.73780083e+01  1.73780083e+01  3.65577380e-08  2.60777664e-07 
 1.81970086e+01  1.81970086e+01  3.57272312e-08  2.54853402e-07 
 1.90546072e+01  1.90546072e+01  3.49156673e-08  2.49064265e-07 
 1.99526231e+01  1.99526231e+01  3.41226161e-08  2.43407186e-07 
 2.08929613e+01  2.08929613e+01  3.33476570e-08  2.37879163e-07 
 2.18776162e+01  2.18776162e+01  3.25903792e-08  2.32477266e-07 
 2.29086765e+01  2.29086765e+01  3.18503812e-08  2.27198631e-07 
 2.39883292e+01  2.39883292e+01  3.11272706e-08  2.22040459e-07 
 2.51188643e+01  2.51188643e+01  3.04206639e-08  2.17000014e-07 
 2.63026799e+01  2.63026799e+01  2.97301865e-08  2.12074625e-07 
 2.75422870e+01  2.75422870e+01  2.90554723e-08  2.07261680e-07 
 2.88403150e+01  2.88403150e+01  2.83961636e-08  2.02558627e-07 
 3.01995172e+01  3.01995172e+01  2.77519108e-08  1.97962972e-07 
 3.16227766e+01  3.16227766e+01  2.71223722e-08  1.93472278e-07 
 3.31131121e+01  3.31131121e+01  2.65072140e-08  1.89084165e-07 
 3.46736850e+01  3.46736850e+01  2.59061101e-08  1.84796305e-07 
 3.63078055e+01  3.63078055e+01  2.53187418e-08  1.80606425e-07 
 3.80189396e+01  3.80189396e+01  2.47447976e-08  1.76512303e-07 
 3.98107171e+01  3.98107171e+01  2.41839732e-08  1.72511769e-07 
 4.16869383e+01  4.16869383e+01  2.36359712e-08  1.68602701e-07 
 4.36515832e+01  4.36515832e+01  2.31005010e-08  1.64783026e-07 
 4.57088190e+01  4.57088190e+01  2.25772787e-08  1.61050720e-07 
 4.78630092e+01  4.78630092e+01  2.20660269e-08  1.57403802e-07 
 5.01187234e+01  5.01187234e+01  2.15664744e-08  1.53840340e-07 
 5.24807460e+01  5.24807460e+01  2.10783564e-08  1.50358443e-07 
 5.49540874e+01  5.49540874e+01  2.06014141e-08  1.46956265e-07 
 5.75439937e+01  5.75439937e+01  2.01353944e-08  1.43632003e-07 
 6.02559586e+01  6.02559586e+01  1.96800504e-08  1.40383893e-07 
 6.30957344e+01  6.30957344e+01  1.92351405e-08  1.37210213e-07 
 6.60693448e+01  6.60693448e+01  1.88004288e-08  1.34109280e-07 
 6.91830971e+01  6.91830971e+01  1.83756849e-08  1.31079450e-07 
 7.24435960e+01  7.24435960e+01  1.79606833e-08  1.28119115e-07 
 7.58577575e+01  7.58577575e+01  1.75552041e-08  1.25226707e-07 
 7.94328235e+01  7.94328235e+01  1.71590323e-08  1.22400690e-07 
 8.31763771e+01  8.31763771e+01  1.67719577e-08  1.19639567e-07 
 8.70963590e+01  8.70963590e+01  1.63937750e-08  1.16941873e-07 
 9.12010839e+01  9.12010839e+01  1.60242837e-08  1.14306177e-07 
 9.54992586e+01  9.54992586e+01  1.56632878e-08  1.11731082e-07 
 1.00000000e+02  1.00000000e+02  1.53105959e-08  1.09215221e-07 
 1.04712855e+02  1.04712855e+02  1.49660208e-08  1.06757260e-07 
 1.09647820e+02  1.09647820e+02  1.46293798e-08  1.04355896e-07 
 1.14815362e+02  1.14815362e+02  1.43004943e-08  1.02009854e-07 
 1.20226443e+02  1.20226443e+02  1.39791899e-08  9.97178900e-08 
 1.25892541e+02  1.25892541e+02  1.36652962e-08  9.74787885e-08 
 1.31825674e+02  1.31825674e+02  1.33586465e-08  9.52913614e-08 
 1.38038426e+02  1.38038426e+02  1.30590782e-08  9.31544482e-08 
 1.44543977e+02  1.44543977e+02  1.27664324e-08  9.10669151e-08 
 1.51356125e+02  1.51356125e+02  1.24805538e-08  8.90276543e-08 
 1.58489319e+02  1.58489319e+02  1.22012906e-08  8.70355839e-08 
 1.65958691e+02  1.65958691e+02  1.19284948e-08  8.50896467e-08 
 1.73780083e+02  1.73780083e+02  1.16620214e-08  8.31888098e-08 
 1.81970086e+02  1.81970086e+02  1.14017292e-08  8.13320643e-08 
 1.90546072e+02  1.90546072e+02  1.11474798e-08  7.95184247e-08 
 1.99526231e+02  1.99526231e+02  1.08991383e-08  7.77469282e-08 
 2.08929613e+02  2.08929613e+02  1.06565729e-08  7.60166340e-08 
 2.18776162e+02  2.18776162e+02  1.04196547e-08  7.43266235e-08 
 2.29086765e+02  2.29086765e+02  1.01882580e-08  7.26759990e-08 
 2.39883292e+02  2.39883292e+02  9.96225980e-09  7.10638837e-08 
 2.51188643e+02  2.51188643e+02  9.74154003e-09  6.94894213e-08 
 2.63026799e+02  2.63026799e+02  9.52598143e-09  6.79517750e-08 
 2.75422870e+02  2.75422870e+02  9.31546941e-09  6.64501276e-08 
 2.88403150e+02  2.88403150e+02  9.10989209e-09  6.49836809e-08 
 3.01995172e+02  3.01995172e+02  8.90914015e-09  6.35516551e-08 
 3.16227766e+02  3.16227766e+02  8.71310681e-09  6.21532886e-08 
 3.31131121e+02  3.31131121e+02  8.52168778e-09  6.07878374e-08 
 3.46736850e+02  3.46736850e+02  8.33478119e-09  5.94545749e-08 
 3.63078055e+02  3.63078055e+02  8.15228753e-09  5.81527911e-08 
 3.80189396e+02  3.80189396e+02  7.97410962e-09  5.68817929e-08 
 3.98107171e+02  3.98107171e+02  7.80015251e-09  5.56409030e-08 
 4.16869383e+02  4.16869383e+02  7.63032350e-09  5.44294600e-08 
 4.36515832e+02  4.36515832e+02  7.46453200e-09  5.32468179e-08 
 4.57088190e+02  4.57088190e+02  7.30268955e-09  5.20923456e-08 
 4.78630092e+02  4.78630092e+02  7.14470976e-09  5.09654269e-08 
 5.01187234e+02  5.01187234e+02  6.99050822e-09  4.98654595e-08 
 5.24807460e+02  5.24807460e+02  6.84000250e-09  4.87918556e-08 
 5.49540874e+02  5.49540874e+02  6.69311208e-09  4.77440408e-08 
 5.75439937e+02  5.75439937e+02  6.54975832e-09  4.67214540e-08 
 6.02559586e+02  6.02559586e+02  6.40986439e-09  4.57235473e-08 
 6.30957344e+02  6.30957344e+02  6.27335526e-09  4.47497854e-08 
 6.60693448e+02  6.60693448e+02  6.14015762e-09  4.37996454e-08 
 6.91830971e+02  6.91830971e+02  6.01019988e-09  4.28726166e-08 
 7.24435960e+02  7.24435960e+02  5.88341208e-09  4.19682000e-08 
 7.58577575e+02  7.58577575e+02  5.75972590e-09  4.10859082e-08 
 7.94328235e+02  7.94328235e+02  5.63907458e-09  4.02252650e-08 
 8.31763771e+02  8.31763771e+02  5.52139291e-09  3.93858052e-08 
 8.70963590e+02  8.70963590e+02  5.40661716e-09  3.85670742e-08 
 9.12010839e+02  9.12010839e+02  5.29468507e-09  3.77686280e-08 
 9.54992586e+02  9.54992586e+02  5.18553582e-09  3.69900325e-08 
 1.00000000e+03  1.00000000e+03  5.07910993e-09  3.62308638e-08 
 1.04712855e+03  1.04712855e+03  4.97534933e-09  3.54907072e-08 
 1.09647820e+03  1.09647820e+03  4.87419721e-09  3.47691579e-08 
 1.14815362e+03  1.14815362e+03  4.77559807e-09  3.40658197e-08 
 1.20226443e+03  1.20226443e+03  4.67949765e-09  3.33803056e-08 
 1.25892541e+03  1.25892541e+03  4.58584289e-09  3.27122372e-08 
 1.31825674e+03  1.31825674e+03  4.49458193e-09  3.20612445e-08 
 1.38038426e+03  1.38038426e+03  4.40566403e-09  3.14269656e-08 
 1.44543977e+03  1.44543977e+03  4.31903957e-09  3.08090465e-08 
 1.51356125e+03  1.51356125e+03  4.23466001e-09  3.02071410e-08 
 1.58489319e+03  1.58489319e+03  4.15247787e-09  2.96209104e-08 
 1.65958691e+03  1.65958691e+03  4.07244668e-09  2.90500231e-08 
 1.73780083e+03  1.73780083e+03  3.99452094e-09  2.84941547e-08 
 1.81970086e+03  1.81970086e+03  3.91865614e-09  2.79529875e-08 
 1.90546072e+03  1.90546072e+03  3.84480867e-09  2.74262107e-08 
 1.99526231e+03  1.99526231e+03  3.77293583e-09  2.69135194e-08 
 2.08929613e+03  2.08929613e+03  3.70299578e-09  2.64146154e-08 
 2.18776162e+03  2.18776162e+03  3.63494755e-09  2.59292063e-08 
 2.29086765e+03  2.29086765e+03  3.56875094e-09  2.54570054e-08 
 2.39883292e+03  2.39883292e+03  3.50436659e-09  2.49977319e-08 
 2.51188643e+03  2.51188643e+03  3.44175586e-09  2.45511102e-08 
 2.63026799e+03  2.63026799e+03  3.38088086e-09  2.41168699e-08 
 2.75422870e+03  2.75422870e+03  3.32170441e-09  2.36947460e-08 
 2.88403150e+03  2.88403150e+03  3.26419003e-09  2.32844781e-08 
 3.01995172e+03  3.01995172e+03  3.20830188e-09  2.28858107e-08 
 3.16227766e+03  3.16227766e+03  3.15400478e-09  2.24984927e-08 
 3.31131121e+03  3.31131121e+03  3.10126416e-09  2.21222775e-08 
 3.46736850e+03  3.46736850e+03  3.05004605e-09  2.17569228e-08 
 3.63078055e+03  3.63078055e+03  3.00031704e-09  2.14021904e-08 
 3.80189396e+03  3.80189396e+03  2.95204430e-09  2.10578460e-08 
 3.98107171e+03  3.98107171e+03  2.90519553e-09  2.07236592e-08 
 4.16869383e+03  4.16869383e+03  2.85973894e-09  2.03994033e-08 
 4.36515832e+03  4.36515832e+03  2.81564326e-09  2.00848551e-08 
 4.57088190e+03  4.57088190e+03  2.77287768e-09  1.97797950e-08 
 4.78630092e+03  4.78630092e+03  2.73141189e-09  1.94840067e-08 
 5.01187234e+03  5.01187234e+03  2.69121602e-09  1.91972771e-08 
 5.24807460e+03  5.24807460e+03  2.65226065e-09  1.89193964e-08 
 5.49540874e+03  5.49540874e+03  2.61451680e-09  1.86501578e-08 
 5.75439937e+03  5.75439937e+03  2.57795589e-09  1.83893575e-08 
 6.02559586e+03  6.02559586e+03  2.54254976e-09  1.81367947e-08 
 6.30957344e+03  6.30957344e+03  2.50827067e-09  1.78922713e-08 
 6.60693448e+03  6.60693448e+03  2.47509125e-09  1.76555923e-08 
 6.91830971e+03  6.91830971e+03  2.44298453e-09  1.74265650e-08 
 7.24435960e+03  7.24435960e+03  2.41192390e-09  1.72050000e-08 
 7.58577575e+03  7.58577575e+03  2.38188316e-09  1.69907101e-08 
 7.94328235e+03  7.94328235e+03  2.35283645e-09  1.67835109e-08 
 8.31763771e+03  8.31763771e+03  2.32475829e-09  1.65832207e-08 
 8.70963590e+03  8.70963590e+03  2.29762357e-09  1.63896603e-08 
 9.12010839e+03  9.12010839e+03  2.27140753e-09  1.62026532e-08 
 9.54992586e+03  9.54992586e+03  2.24608578e-09  1.60220253e-08 
 1.00000000e+04  1.00000000e+04  2.22163429e-09  1.58476053e-08 
 1.04712855e+04  1.04712855e+04  2.19802940e-09  1.56792243e-08 
 1.09647820e+04  1.09647820e+04  2.17524780e-09  1.55167161e-08 
 1.14815362e+04  1.14815362e+04  2.15326655e-09  1.53599170e-08 
 1.20226443e+04  1.20226443e+04  2.13206308e-09  1.52086661e-08 
 1.25892541e+04  1.25892541e+04  2.11161518e-09  1.50628049e-08 
 1.31825674e+04  1.31825674e+04  2.09190101e-09  1.49221776e-08 
 1.38038426e+04  1.38038426e+04  2.07289911e-09  1.47866311e-08 
 1.44543977e+04  1.44543977e+04  2.05458838e-09  1.46560151e-08 
 1.51356125e+04  1.51356125e+04  2.03694813e-09  1.45301817e-08 
 1.58489319e+04  1.58489319e+04  2.01995802e-09  1.44089860e-08 
 1.65958691e+04  1.65958691e+04  2.00359810e-09  1.42922856e-08 
 1.73780083e+04  1.73780083e+04  1.98784881e-09  1.41799411e-08 
 1.81970086e+04  1.81970086e+04  1.97269099e-09  1.40718156e-08 
 1.90546072e+04  1.90546072e+04  1.95810585e-09  1.39677753e-08 
 1.99526231e+04  1.99526231e+04  1.94407501e-09  1.38676889e-08 
 2.08929613e+04  2.08929613e+04  1.93058046e-09  1.37714282e-08 
 2.18776162e+04  2.18776162e+04  1.91760463e-09  1.36788676e-08 
 2.29086765e+04  2.29086765e+04  1.90513031e-09  1.35898843e-08 
 2.39883292e+04  2.39883292e+04  1.89314069e-09  1.35043587e-08 
 2.51188643e+04  2.51188643e+04  1.88161938e-09  1.34221736e-08 
 2.63026799e+04  2.63026799e+04  1.87055037e-09  1.33432150e-08 
 2.75422870e+04  2.75422870e+04  1.85991806e-09  1.32673714e-08 
 2.88403150e+04  2.88403150e+04  1.84970722e-09  1.31945343e-08 
 3.01995172e+04  3.01995172e+04  1.83990305e-09  1.31245982e-08 
 3.16227766e+04  3.16227766e+04  1.83049113e-09  1.30574600e-08 
 3.31131121e+04  3.31131121e+04  1.82145741e-09  1.29930197e-08 
 3.46736850e+04  3.46736850e+04  1.81278825e-09  1.29311799e-08 
 3.63078055e+04  3.63078055e+04  1.80447039e-09  1.28718460e-08 
 3.80189396e+04  3.80189396e+04  1.79649094e-09  1.28149261e-08 
 3.98107171e+04  3.98107171e+04  1.78883740e-09  1.27603311e-08 
 4.16869383e+04  4.16869383e+04  1.78149764e-09  1.27079742e-08 
 4.36515832e+04  4.36515832e+04  1.77445987e-09  1.26577717e-08 
 4.57088190e+04  4.57088190e+04  1.76771271e-09  1.26096421e-08 
 4.78630092e+04  4.78630092e+04  1.76124508e-09  1.25635065e-08 
 5.01187234e+04  5.01187234e+04  1.75504630e-09  1.25192887e-08 
 5.24807460e+04  5.24807460e+04  1.74910600e-09  1.24769147e-08 
 5.49540874e+04  5.49540874e+04  1.74341417e-09  1.24363131e-08 
 5.75439937e+04  5.75439937e+04  1.73796111e-09  1.23974147e-08 
 6.02559586e+04  6.02559586e+04  1.73273745e-09  1.23601528e-08 
 6.30957344e+04  6.30957344e+04  1.72773416e-09  1.23244627e-08 
 6.60693448e+04  6.60693448e+04  1.72294249e-09  1.22902822e-08 
 6.91830971e+04  6.91830971e+04  1.71835401e-09  1.22575512e-08 
 7.24435960e+04  7.24435960e+04  1.71396057e-09  1.22262114e-08 
 7.58577575e+04  7.58577575e+04  1.70975434e-09  1.21962071e-08 
 7.94328235e+04  7.94328235e+04  1.70572773e-09  1.21674840e-08 
 8.31763771e+04  8.31763771e+04  1.70187346e-09  1.21399903e-08 
 8.70963590e+04  8.70963590e+04  1.69818449e-09  1.21136758e-08 
 9.12010839e+04  9.12010839e+04  1.69465406e-09  1.20884921e-08 
 9.54992586e+04  9.54992586e+04  1.69127564e-09  1.20643928e-08 
 1.00000000e+05  1.00000000e+05  1.68804296e-09  1.20413331e-08 
 1.04712855e+05  1.04712855e+05  1.68494999e-09  1.20192700e-08 
 1.09647820e+05  1.09647820e+05  1.68199092e-09  1.19981620e-08 
 1.14815362e+05  1.14815362e+05  1.67916016e-09  1.19779693e-08 
 1.20226443e+05  1.20226443e+05  1.67645234e-09  1.19586536e-08 
 1.25892541e+05  1.25892541e+05  1.67386231e-09  1.19401781e-08 
 1.31825674e+05  1.31825674e+05  1.67138509e-09  1.19225074e-08 
 1.38038426e+05  1.38038426e+05  1.66901594e-09  1.19056075e-08 
 1.44543977e+05  1.44543977e+05  1.66675028e-09  1.18894458e-08 
 1.51356125e+05  1.51356125e+05  1.66458371e-09  1.18739910e-08 
 1.58489319e+05  1.58489319e+05  1.66251201e-09  1.18592129e-08 
 1.65958691e+05  1.65958691e+05  1.66053115e-09  1.18450828e-08 
 1.73780083e+05  1.73780083e+05  1.65863723e-09  1.18315729e-08 
 1.81970086e+05  1.81970086e+05  1.65682652e-09  1.18186566e-08 
 1.90546072e+05  1.90546072e+05  1.65509547e-09  1.18063084e-08 
 1.99526231e+05  1.99526231e+05  1.65344063e-09  1.17945039e-08 
 2.08929613e+05  2.08929613e+05  1.65185872e-09  1.17832197e-08 
 2.18776162e+05  2.18776162e+05  1.65034660e-09  1.17724333e-08 
 2.29086765e+05  2.29086765e+05  1.64890124e-09  1.17621231e-08 
 2.39883292e+05  2.39883292e+05  1.64751975e-09  1.17522685e-08 
 2.51188643e+05  2.51188643e+05  1.64619935e-09  1.17428497e-08 
 2.63026799e+05  2.63026799e+05  1.64493739e-09  1.17338477e-08 
 2.75422870e+05  2.75422870e+05  1.64373133e-09  1.17252445e-08 
 2.88403150e+05  2.88403150e+05  1.64257871e-09  1.17170225e-08 
 3.01995172e+05  3.01995172e+05  1.64147722e-09  1.17091653e-08 
 3.16227766e+05  3.16227766e+05  1.64042462e-09  1.17016567e-08 
 3.31131121e+05  3.31131121e+05  1.63941876e-09  1.16944816e-08 
 3.46736850e+05  3.46736850e+05  1.63845759e-09  1.16876253e-08 
 3.63078055e+05  3.63078055e+05  1.63753916e-09  1.16810738e-08 
 3.80189396e+05  3.80189396e+05  1.63666158e-09  1.16748138e-08 
 3.98107171e+05  3.98107171e+05  1.63582306e-09  1.16688323e-08 
 4.16869383e+05  4.16869383e+05  1.63502188e-09  1.16631173e-08 
 4.36515832e+05  4.36515832e+05  1.63425639e-09  1.16576568e-08 
 4.57088190e+05  4.57088190e+05  1.63352502e-09  1.16524397e-08 
 4.78630092e+05  4.78630092e+05  1.63282625e-09  1.16474552e-08 
 5.01187234e+05  5.01187234e+05  1.63215866e-09  1.16426931e-08 
 5.24807460e+05  5.24807460e+05  1.63152087e-09  1.16381435e-08 
 5.49540874e+05  5.49540874e+05  1.63091154e-09  1.16337969e-08 
 5.75439937e+05  5.75439937e+05  1.63032942e-09  1.16296445e-08 
 6.02559586e+05  6.02559586e+05  1.62977332e-09  1.16256776e-08 
 6.30957344e+05  6.30957344e+05  1.62924206e-09  1.16218880e-08 
 6.60693448e+05  6.60693448e+05  1.62873455e-09  1.16182678e-08 
 6.91830971e+05  6.91830971e+05  1.62824974e-09  1.16148095e-08 
 7.24435960e+05  7.24435960e+05  1.62778661e-09  1.16115058e-08 
 7.58577575e+05  7.58577575e+05  1.62734420e-09  1.16083500e-08 
 7.94328235e+05  7.94328235e+05  1.62692159e-09  1.16053354e-08 
 8.31763771e+05  8.31763771e+05  1.62651790e-09  1.16024557e-08 
 8.70963590e+05  8.70963590e+05  1.62613229e-09  1.15997050e-08 
 9.12010839e+05  9.12010839e+05  1.62576394e-09  1.15970775e-08 
 9.54992586e+05  9.54992586e+05  1.62541210e-09  1.15945676e-08 
 1.00000000e+06  1.00000000e+06  1.62507602e-09  1.15921703e-08 
